# background statistics
# cycle   tau/boxsize    a             conformal H/H0  phi(k=0)       T00(k=0)
      0   3.143672e+00   9.900990e-03   5.618976e+00   0.000000e+00   4.940656e-324
      1   3.214810e+00   1.030092e-02   5.506971e+00   0.000000e+00   4.940656e-324
      2   3.287395e+00   1.071701e-02   5.397266e+00   0.000000e+00   4.940656e-324
      3   3.361455e+00   1.114991e-02   5.289811e+00   0.000000e+00   4.940656e-324
      4   3.437020e+00   1.160030e-02   5.184557e+00   0.000000e+00   4.940656e-324
      5   3.514119e+00   1.206888e-02   5.081454e+00   0.000000e+00   4.940656e-324
      6   3.592782e+00   1.255639e-02   4.980456e+00   0.000000e+00   4.940656e-324
      7   3.673040e+00   1.306360e-02   4.881517e+00   0.000000e+00   4.940656e-324
      8   3.754925e+00   1.359130e-02   4.784591e+00   0.000000e+00   4.940656e-324
      9   3.838469e+00   1.414032e-02   4.689635e+00   0.000000e+00   4.940656e-324
     10   3.923705e+00   1.471153e-02   4.596606e+00   0.000000e+00   4.940656e-324
     11   4.010665e+00   1.530580e-02   4.505464e+00   0.000000e+00   4.940656e-324
     12   4.099385e+00   1.592409e-02   4.416166e+00   0.000000e+00   4.940656e-324
     13   4.189898e+00   1.656735e-02   4.328675e+00   0.000000e+00   4.940656e-324
     14   4.282242e+00   1.723660e-02   4.242950e+00   0.000000e+00   4.940656e-324
     15   4.376450e+00   1.793289e-02   4.158956e+00   0.000000e+00   4.940656e-324
     16   4.472562e+00   1.865731e-02   4.076654e+00   0.000000e+00   4.940656e-324
     17   4.570614e+00   1.941100e-02   3.996009e+00   0.000000e+00   4.940656e-324
     18   4.670644e+00   2.019514e-02   3.916987e+00   0.000000e+00   4.940656e-324
     19   4.772693e+00   2.101095e-02   3.839552e+00   0.000000e+00   4.940656e-324
     20   4.876800e+00   2.185972e-02   3.763672e+00   0.000000e+00   4.940656e-324
     21   4.983005e+00   2.274279e-02   3.689314e+00   0.000000e+00   4.940656e-324
     22   5.091352e+00   2.366153e-02   3.616447e+00   0.000000e+00   4.940656e-324
     23   5.201881e+00   2.461738e-02   3.545038e+00   0.000000e+00   4.940656e-324
     24   5.314637e+00   2.561186e-02   3.475058e+00   0.000000e+00   4.940656e-324
     25   5.429663e+00   2.664651e-02   3.406478e+00   0.000000e+00   4.940656e-324
     26   5.547005e+00   2.772296e-02   3.339268e+00   0.000000e+00   4.940656e-324
     27   5.666709e+00   2.884289e-02   3.273399e+00   0.000000e+00   4.940656e-324
     28   5.788821e+00   3.000808e-02   3.208845e+00   0.000000e+00   4.940656e-324
     29   5.913391e+00   3.122033e-02   3.145577e+00   0.000000e+00   4.940656e-324
     30   6.040465e+00   3.248157e-02   3.083570e+00   0.000000e+00   4.940656e-324
     31   6.170095e+00   3.379375e-02   3.022799e+00   0.000000e+00   4.940656e-324
     32   6.302332e+00   3.515895e-02   2.963236e+00   0.000000e+00   4.940656e-324
     33   6.437226e+00   3.657930e-02   2.904858e+00   0.000000e+00   4.940656e-324
     34   6.574831e+00   3.805704e-02   2.847641e+00   0.000000e+00   4.940656e-324
     35   6.715201e+00   3.959447e-02   2.791560e+00   0.000000e+00   4.940656e-324
     36   6.858391e+00   4.119402e-02   2.736594e+00   0.000000e+00   4.940656e-324
     37   7.004457e+00   4.285819e-02   2.682718e+00   0.000000e+00   4.940656e-324
     38   7.153456e+00   4.458959e-02   2.629911e+00   0.000000e+00   4.940656e-324
     39   7.305447e+00   4.639094e-02   2.578151e+00   0.000000e+00   4.940656e-324
     40   7.460490e+00   4.826507e-02   2.527418e+00   0.000000e+00   4.940656e-324
     41   7.618645e+00   5.021491e-02   2.477689e+00   0.000000e+00   4.940656e-324
     42   7.779974e+00   5.224352e-02   2.428946e+00   0.000000e+00   4.940656e-324
     43   7.944540e+00   5.435409e-02   2.381168e+00   0.000000e+00   4.940656e-324
     44   8.112409e+00   5.654992e-02   2.334335e+00   0.000000e+00   4.940656e-324
     45   8.283645e+00   5.883447e-02   2.288429e+00   0.000000e+00   4.940656e-324
     46   8.458317e+00   6.121131e-02   2.243430e+00   0.000000e+00   4.940656e-324
     47   8.636492e+00   6.368418e-02   2.199322e+00   0.000000e+00   4.940656e-324
     48   8.818240e+00   6.625695e-02   2.156085e+00   0.000000e+00   4.940656e-324
     49   9.003633e+00   6.893366e-02   2.113702e+00   0.000000e+00   4.940656e-324
     50   9.192744e+00   7.171852e-02   2.072157e+00   0.000000e+00   4.940656e-324
     51   9.385646e+00   7.461587e-02   2.031432e+00   0.000000e+00   4.940656e-324
     52   9.582415e+00   7.763029e-02   1.991512e+00   0.000000e+00   4.940656e-324
     53   9.783129e+00   8.076648e-02   1.952379e+00   0.000000e+00   4.940656e-324
     54   9.987865e+00   8.402938e-02   1.914018e+00   0.000000e+00   4.940656e-324
     55   1.019670e+01   8.742410e-02   1.876414e+00   0.000000e+00   4.940656e-324
     56   1.040973e+01   9.095596e-02   1.839553e+00   0.000000e+00   4.940656e-324
     57   1.062702e+01   9.463051e-02   1.803418e+00   0.000000e+00   4.940656e-324
     58   1.084867e+01   9.845352e-02   1.767995e+00   0.000000e+00   4.940656e-324
     59   1.107476e+01   1.024310e-01   1.733271e+00   0.000000e+00   4.940656e-324
     60   1.130538e+01   1.065691e-01   1.699232e+00   0.000000e+00   4.940656e-324
     61   1.154062e+01   1.108744e-01   1.665864e+00   0.000000e+00   4.940656e-324
     62   1.178056e+01   1.153537e-01   1.633154e+00   0.000000e+00   4.940656e-324
     63   1.202532e+01   1.200139e-01   1.601089e+00   0.000000e+00   4.940656e-324
     64   1.227498e+01   1.248624e-01   1.569655e+00   0.000000e+00   4.940656e-324
     65   1.252963e+01   1.299068e-01   1.538842e+00   0.000000e+00   4.940656e-324
     66   1.278939e+01   1.351550e-01   1.508637e+00   0.000000e+00   4.940656e-324
     67   1.305435e+01   1.406152e-01   1.479028e+00   0.000000e+00   4.940656e-324
     68   1.332461e+01   1.462960e-01   1.450004e+00   0.000000e+00   4.940656e-324
     69   1.360028e+01   1.522063e-01   1.421554e+00   0.000000e+00   4.940656e-324
     70   1.388147e+01   1.583554e-01   1.393667e+00   0.000000e+00   4.940656e-324
     71   1.416828e+01   1.647530e-01   1.366332e+00   0.000000e+00   4.940656e-324
     72   1.446083e+01   1.714090e-01   1.339540e+00   0.000000e+00   4.940656e-324
     73   1.475923e+01   1.783339e-01   1.313281e+00   0.000000e+00   4.940656e-324
     74   1.506360e+01   1.855386e-01   1.287547e+00   0.000000e+00   4.940656e-324
     75   1.537406e+01   1.930345e-01   1.262328e+00   0.000000e+00   4.940656e-324
     76   1.569071e+01   2.008332e-01   1.237617e+00   0.000000e+00   4.940656e-324
     77   1.601369e+01   2.089470e-01   1.213408e+00   0.000000e+00   4.940656e-324
     78   1.634311e+01   2.173888e-01   1.189692e+00   0.000000e+00   4.940656e-324
     79   1.667910e+01   2.261716e-01   1.166467e+00   0.000000e+00   4.940656e-324
     80   1.702178e+01   2.353095e-01   1.143727e+00   0.000000e+00   4.940656e-324
     81   1.737127e+01   2.448167e-01   1.121469e+00   0.000000e+00   4.940656e-324
     82   1.772770e+01   2.547082e-01   1.099694e+00   0.000000e+00   4.940656e-324
     83   1.809119e+01   2.649997e-01   1.078402e+00   0.000000e+00   4.940656e-324
     84   1.846185e+01   2.757074e-01   1.057597e+00   0.000000e+00   4.940656e-324
     85   1.883980e+01   2.868482e-01   1.037287e+00   0.000000e+00   4.940656e-324
     86   1.922516e+01   2.984399e-01   1.017481e+00   0.000000e+00   4.940656e-324
     87   1.961801e+01   3.105008e-01   9.981941e-01   0.000000e+00   4.940656e-324
     88   2.001846e+01   3.230502e-01   9.794477e-01   0.000000e+00   4.940656e-324
     89   2.042657e+01   3.361083e-01   9.612682e-01   0.000000e+00   4.940656e-324
     90   2.084240e+01   3.496961e-01   9.436903e-01   0.000000e+00   4.940656e-324
     91   2.126598e+01   3.638356e-01   9.267575e-01   0.000000e+00   4.940656e-324
     92   2.169729e+01   3.785500e-01   9.105238e-01   0.000000e+00   4.940656e-324
     93   2.213629e+01   3.938635e-01   8.950550e-01   0.000000e+00   4.940656e-324
     94   2.258288e+01   4.098017e-01   8.804303e-01   0.000000e+00   4.940656e-324
     95   2.303689e+01   4.263915e-01   8.667429e-01   0.000000e+00   4.940656e-324
     96   2.349807e+01   4.436612e-01   8.541007e-01   0.000000e+00   4.940656e-324
     97   2.396608e+01   4.616408e-01   8.426260e-01   0.000000e+00   4.940656e-324
     98   2.444045e+01   4.803618e-01   8.324537e-01   0.000000e+00   4.940656e-324
     99   2.492063e+01   4.998577e-01   8.237286e-01   0.000000e+00   4.940656e-324
    100   2.540589e+01   5.201636e-01   8.166006e-01   0.000000e+00   4.940656e-324
    101   2.589539e+01   5.413164e-01   8.112193e-01   0.000000e+00   4.940656e-324
    102   2.638813e+01   5.633549e-01   8.077274e-01   0.000000e+00   4.940656e-324
    103   2.688300e+01   5.863194e-01   8.062540e-01   0.000000e+00   4.940656e-324
    104   2.737878e+01   6.102520e-01   8.069090e-01   0.000000e+00   4.940656e-324
    105   2.787416e+01   6.351961e-01   8.097793e-01   0.000000e+00   4.940656e-324
    106   2.836778e+01   6.611967e-01   8.149271e-01   0.000000e+00   4.940656e-324
    107   2.885828e+01   6.883000e-01   8.223906e-01   0.000000e+00   4.940656e-324
    108   2.934433e+01   7.165536e-01   8.321869e-01   0.000000e+00   4.940656e-324
    109   2.982466e+01   7.460067e-01   8.443155e-01   0.000000e+00   4.940656e-324
    110   3.029809e+01   7.767098e-01   8.587638e-01   0.000000e+00   4.940656e-324
    111   3.076355e+01   8.087152e-01   8.755110e-01   0.000000e+00   4.940656e-324
    112   3.122011e+01   8.420768e-01   8.945327e-01   0.000000e+00   4.940656e-324
    113   3.166696e+01   8.768507e-01   9.158044e-01   0.000000e+00   4.940656e-324
    114   3.210344e+01   9.130948e-01   9.393043e-01   0.000000e+00   4.940656e-324
    115   3.252899e+01   9.508696e-01   9.650148e-01   0.000000e+00   4.940656e-324
    116   3.294320e+01   9.902378e-01   9.929245e-01   0.000000e+00   4.940656e-324
    117   3.334577e+01   1.031265e+00   1.023029e+00   0.000000e+00   4.940656e-324
