# power spectrum of delta
# redshift z=0.000000
# k              Pk             sigma(k)       sigma(Pk)      count
  2.094395e-02   7.662325e-03   1.873193e-10   3.106308e-03   6
  4.041873e-02   4.777284e-02   7.123136e-03   1.132234e-02   50
  6.490740e-02   1.604220e-01   7.704015e-03   1.315676e-02   146
  8.919218e-02   2.954883e-01   6.515352e-03   1.862824e-02   258
  1.152383e-01   4.264206e-01   7.588046e-03   1.949236e-02   488
  1.414449e-01   6.674069e-01   7.538441e-03   2.579079e-02   698
  1.659742e-01   7.847283e-01   7.050465e-03   2.620310e-02   906
  1.914641e-01   1.052084e+00   7.471609e-03   2.910681e-02   1334
  2.173330e-01   1.299946e+00   6.995022e-03   3.107073e-02   1610
  2.424567e-01   1.552473e+00   7.345390e-03   3.594296e-02   2024
  2.678993e-01   1.932990e+00   7.580509e-03   3.888721e-02   2538
  2.938190e-01   2.354478e+00   7.447628e-03   4.355432e-02   3074
  3.195712e-01   2.604752e+00   7.220239e-03   4.430277e-02   3530
  3.446864e-01   2.969607e+00   7.270973e-03   4.583738e-02   4056
  3.699787e-01   3.432640e+00   7.428541e-03   5.051996e-02   4814
  3.958636e-01   3.956653e+00   7.424289e-03   5.211326e-02   5570
  4.214096e-01   4.548156e+00   7.192216e-03   6.000700e-02   6090
  4.461528e-01   5.128822e+00   7.017327e-03   6.198251e-02   6674
  4.716496e-01   5.529921e+00   7.522617e-03   6.270056e-02   8000
  4.976255e-01   6.265597e+00   7.432317e-03   6.724449e-02   8690
  5.234355e-01   7.084059e+00   7.563486e-03   7.091152e-02   9762
  5.488848e-01   7.643017e+00   7.139761e-03   7.558232e-02   10262
  5.740202e-01   8.312619e+00   7.208672e-03   7.605885e-02   11384
  5.998726e-01   9.258807e+00   7.605282e-03   8.208741e-02   12978
  6.254488e-01   9.838366e+00   7.225996e-03   8.581281e-02   13322
  6.507142e-01   1.067326e+01   7.369919e-03   8.683032e-02   14858
  6.762540e-01   1.164708e+01   7.250774e-03   9.268782e-02   15858
  7.016736e-01   1.267231e+01   7.353014e-03   9.565037e-02   17120
  7.269255e-01   1.375293e+01   7.307103e-03   1.007235e-01   18206
  7.526206e-01   1.461730e+01   7.525550e-03   1.015818e-01   20282
  7.783742e-01   1.556560e+01   7.276293e-03   1.094197e-01   20946
  8.037396e-01   1.674803e+01   7.373172e-03   1.128228e-01   22514
  8.292023e-01   1.793661e+01   7.345694e-03   1.164828e-01   23936
  8.546745e-01   1.894047e+01   7.347089e-03   1.205008e-01   25458
  8.800992e-01   2.028398e+01   7.329232e-03   1.234438e-01   26882
  9.054925e-01   2.131412e+01   7.338127e-03   1.274595e-01   28514
  9.311790e-01   2.220701e+01   7.460228e-03   1.246193e-01   30740
  9.568777e-01   2.388094e+01   7.357333e-03   1.340680e-01   31866
  9.821952e-01   2.543074e+01   7.331624e-03   1.398737e-01   33314
  1.007650e+00   2.604158e+01   7.414657e-03   1.380103e-01   35666
  1.033253e+00   2.733098e+01   7.318024e-03   1.419097e-01   37242
  1.058762e+00   2.839514e+01   7.338439e-03   1.442710e-01   39008
  1.084162e+00   3.010343e+01   7.377341e-03   1.484551e-01   40874
  1.109663e+00   3.137056e+01   7.384274e-03   1.525702e-01   43134
  1.135231e+00   3.278427e+01   7.323407e-03   1.550541e-01   44906
  1.160648e+00   3.419265e+01   7.324475e-03   1.607962e-01   46688
  1.186063e+00   3.557801e+01   7.393303e-03   1.606084e-01   49106
  1.211638e+00   3.697921e+01   7.403029e-03   1.622219e-01   51498
  1.237270e+00   3.792348e+01   7.385683e-03   1.637026e-01   53570
  1.262712e+00   3.959134e+01   7.321723e-03   1.709891e-01   55226
  1.288093e+00   4.100622e+01   7.341969e-03   1.689108e-01   57708
  1.313634e+00   4.264867e+01   7.407574e-03   1.728894e-01   60530
  1.339301e+00   4.429530e+01   7.432212e-03   1.746079e-01   63050
  1.364534e+00   4.594038e+01   7.161349e-03   1.824826e-01   63138
  1.389920e+00   4.745868e+01   7.475118e-03   1.810000e-01   68594
  1.415805e+00   4.838280e+01   7.439430e-03   1.820165e-01   70664
  1.441273e+00   4.984335e+01   7.308630e-03   1.876173e-01   71594
  1.466675e+00   5.161272e+01   7.411357e-03   1.850324e-01   75438
  1.492191e+00   5.288980e+01   7.301996e-03   1.890654e-01   77258
  1.517767e+00   5.415350e+01   7.436078e-03   1.895567e-01   81128
  1.543221e+00   5.549426e+01   7.296345e-03   1.930684e-01   82098
  1.568696e+00   5.737677e+01   7.424693e-03   1.940393e-01   86690
  1.594426e+00   5.837423e+01   7.389266e-03   1.948481e-01   89306
  1.619960e+00   6.006181e+01   7.318410e-03   1.986802e-01   91074
  1.645323e+00   6.196412e+01   7.332853e-03   2.019493e-01   93908
  1.670710e+00   6.349826e+01   7.343977e-03   2.038454e-01   97106
  1.696187e+00   6.444105e+01   7.356873e-03   2.022883e-01   100370
  1.721752e+00   6.609516e+01   7.394531e-03   2.037920e-01   103914
  1.747332e+00   6.784681e+01   7.360597e-03   2.074881e-01   106616
  1.772874e+00   6.947835e+01   7.362187e-03   2.105097e-01   109850
  1.798406e+00   7.063818e+01   7.360683e-03   2.101269e-01   112842
  1.823780e+00   7.249081e+01   7.293039e-03   2.135703e-01   114914
  1.849190e+00   7.394931e+01   7.358923e-03   2.139269e-01   119582
  1.874776e+00   7.534445e+01   7.367534e-03   2.143886e-01   122888
  1.900308e+00   7.731607e+01   7.385270e-03   2.172875e-01   126090
  1.925820e+00   7.845145e+01   7.366580e-03   2.178969e-01   129482
  1.951341e+00   7.999596e+01   7.334265e-03   2.196471e-01   132818
  1.976809e+00   8.111208e+01   7.322888e-03   2.202754e-01   135810
  2.002209e+00   8.322348e+01   7.346060e-03   2.229016e-01   139304
  2.027792e+00   8.429827e+01   7.442133e-03   2.207204e-01   145022
  2.053380e+00   8.636683e+01   7.308775e-03   2.256749e-01   146370
  2.078794e+00   8.730501e+01   7.334480e-03   2.253125e-01   150338
  2.104269e+00   8.876826e+01   7.371946e-03   2.255982e-01   154544
  2.129794e+00   8.965030e+01   7.373878e-03   2.259425e-01   158546
  2.155453e+00   9.190985e+01   7.427055e-03   2.265109e-01   163602
  2.180972e+00   9.365296e+01   7.309285e-03   2.328745e-01   164642
  2.206370e+00   9.463339e+01   7.351997e-03   2.297681e-01   169790
  2.231837e+00   9.638807e+01   7.324438e-03   2.302442e-01   173136
  2.257387e+00   9.762984e+01   7.423329e-03   2.294388e-01   179090
  2.282912e+00   9.837123e+01   7.329232e-03   2.301636e-01   180890
  2.308457e+00   9.989844e+01   7.404053e-03   2.318796e-01   187434
  2.333949e+00   1.012432e+02   7.276406e-03   2.339983e-01   188000
  2.359383e+00   1.024287e+02   7.426870e-03   2.319555e-01   195338
  2.384874e+00   1.038817e+02   7.330167e-03   2.337501e-01   197246
  2.410353e+00   1.054290e+02   7.377053e-03   2.342299e-01   203394
  2.435901e+00   1.063499e+02   7.347720e-03   2.333346e-01   206834
  2.461361e+00   1.080601e+02   7.352103e-03   2.354859e-01   210728
  2.486883e+00   1.100252e+02   7.408456e-03   2.358161e-01   216930
  2.512465e+00   1.113165e+02   7.356142e-03   2.363841e-01   220226
  2.537932e+00   1.122639e+02   7.338615e-03   2.368405e-01   224018
  2.563367e+00   1.135516e+02   7.347478e-03   2.372204e-01   228644
  2.588906e+00   1.145918e+02   7.404034e-03   2.363161e-01   235098
  2.614571e+00   1.159919e+02   7.419460e-03   2.368405e-01   240098
  2.640032e+00   1.178684e+02   7.303768e-03   2.398139e-01   240794
  2.665399e+00   1.191958e+02   7.353580e-03   2.407420e-01   247626
  2.690948e+00   1.202711e+02   7.383215e-03   2.387941e-01   253472
  2.716502e+00   1.217691e+02   7.379669e-03   2.392695e-01   257594
  2.741989e+00   1.225668e+02   7.366069e-03   2.402935e-01   261954
  2.767506e+00   1.244447e+02   7.373825e-03   2.410048e-01   267830
  2.793068e+00   1.252405e+02   7.364123e-03   2.397289e-01   272474
  2.818538e+00   1.264916e+02   7.347491e-03   2.399833e-01   276008
  2.843958e+00   1.273572e+02   7.368971e-03   2.397876e-01   281754
  2.869505e+00   1.298264e+02   7.394802e-03   2.424487e-01   288578
  2.895121e+00   1.304132e+02   7.386730e-03   2.411544e-01   293450
  2.920590e+00   1.315315e+02   7.325223e-03   2.430335e-01   295680
  2.946058e+00   1.325412e+02   7.393210e-03   2.399559e-01   304022
  2.971618e+00   1.334304e+02   7.353750e-03   2.393383e-01   307994
  2.997119e+00   1.344558e+02   7.361330e-03   2.398144e-01   313338
  3.022499e+00   1.361817e+02   7.291353e-03   2.427489e-01   315722
  3.048006e+00   1.369346e+02   7.422779e-03   2.387572e-01   327056
  3.073649e+00   1.387030e+02   7.377998e-03   2.412663e-01   330098
  3.099149e+00   1.394318e+02   7.360021e-03   2.407479e-01   334650
  3.124623e+00   1.410495e+02   7.344466e-03   2.417492e-01   340238
  3.150029e+00   1.415051e+02   7.295384e-03   2.407023e-01   343616
  3.175592e+00   1.432621e+02   7.449711e-03   2.402988e-01   355986
  3.201196e+00   1.436214e+02   7.341603e-03   2.405899e-01   356162
  3.226615e+00   1.450372e+02   7.337068e-03   2.404801e-01   362354
  3.252120e+00   1.459791e+02   7.358113e-03   2.412712e-01   369474
  3.277642e+00   1.470505e+02   7.364375e-03   2.407471e-01   374696
  3.303139e+00   1.481058e+02   7.372139e-03   2.404846e-01   380774
  3.328682e+00   1.488550e+02   7.376858e-03   2.400538e-01   387530
  3.354217e+00   1.508715e+02   7.353481e-03   2.411687e-01   392346
  3.379688e+00   1.520533e+02   7.345952e-03   2.412366e-01   397490
  3.405140e+00   1.532237e+02   7.351647e-03   2.407128e-01   404024
  3.430725e+00   1.537195e+02   7.408667e-03   2.382528e-01   413538
  3.456243e+00   1.549825e+02   7.315991e-03   2.401906e-01   414266
  3.481684e+00   1.548803e+02   7.363540e-03   2.383158e-01   423350
  3.507212e+00   1.563968e+02   7.356884e-03   2.391884e-01   429224
  3.532706e+00   1.574437e+02   7.357692e-03   2.387817e-01   434898
  3.558224e+00   1.581905e+02   7.391743e-03   2.384273e-01   442754
  3.583745e+00   1.594553e+02   7.358544e-03   2.375207e-01   447842
  3.609237e+00   1.597626e+02   7.340691e-03   2.366237e-01   453906
  3.634764e+00   1.609640e+02   7.379481e-03   2.367629e-01   462008
  3.660246e+00   1.622584e+02   7.346019e-03   2.380505e-01   465746
  3.685744e+00   1.627588e+02   7.382125e-03   2.355672e-01   475518
  3.711289e+00   1.635641e+02   7.343917e-03   2.360979e-01   480074
  3.736776e+00   1.643738e+02   7.361129e-03   2.362223e-01   486704
  3.762257e+00   1.652564e+02   7.371796e-03   2.352768e-01   493682
  3.787731e+00   1.656278e+02   7.348094e-03   2.341743e-01   499458
  3.813253e+00   1.672058e+02   7.384327e-03   2.352261e-01   508874
  3.838784e+00   1.679264e+02   7.356201e-03   2.347581e-01   513530
  3.864291e+00   1.696186e+02   7.371075e-03   2.350786e-01   521652
  3.889813e+00   1.699256e+02   7.360567e-03   2.340572e-01   527762
  3.915341e+00   1.706740e+02   7.382957e-03   2.334190e-01   535898
  3.940780e+00   1.717892e+02   7.313419e-03   2.342343e-01   538074
  3.966243e+00   1.726812e+02   7.379204e-03   2.324491e-01   550562
  3.991852e+00   1.730237e+02   7.396797e-03   2.313365e-01   558392
  4.017351e+00   1.740451e+02   7.345294e-03   2.330174e-01   560522
  4.042795e+00   1.742411e+02   7.371024e-03   2.312458e-01   570366
  4.068286e+00   1.757571e+02   7.342311e-03   2.313605e-01   576290
  4.093801e+00   1.766215e+02   7.381356e-03   2.310914e-01   586016
  4.119292e+00   1.768540e+02   7.350810e-03   2.295886e-01   590178
  4.144811e+00   1.777118e+02   7.396764e-03   2.287675e-01   602090
  4.170363e+00   1.789577e+02   7.345928e-03   2.304456e-01   605834
  4.195849e+00   1.787429e+02   7.364704e-03   2.287398e-01   614210
  4.221384e+00   1.797061e+02   7.384356e-03   2.280833e-01   623076
  4.246873e+00   1.810513e+02   7.343391e-03   2.292947e-01   627194
  4.272356e+00   1.814035e+02   7.375414e-03   2.271421e-01   637706
  4.297876e+00   1.821976e+02   7.362245e-03   2.273599e-01   644178
  4.323354e+00   1.825172e+02   7.348692e-03   2.260236e-01   651056
  4.348869e+00   1.836234e+02   7.374286e-03   2.270081e-01   661130
  4.374409e+00   1.835793e+02   7.373714e-03   2.236661e-01   668106
  4.399910e+00   1.844948e+02   7.359532e-03   2.256338e-01   674894
  4.425387e+00   1.852218e+02   7.342198e-03   2.240428e-01   682082
  4.450903e+00   1.861482e+02   7.375276e-03   2.234696e-01   692480
  4.476432e+00   1.861938e+02   7.375072e-03   2.231398e-01   699258
  4.501885e+00   1.868876e+02   7.336800e-03   2.229988e-01   704354
  4.527378e+00   1.882216e+02   7.372539e-03   2.228010e-01   716810
  4.552863e+00   1.877299e+02   7.328466e-03   2.214291e-01   720138
  4.578399e+00   1.887466e+02   7.414456e-03   2.193877e-01   736064
  4.603934e+00   1.892187e+02   7.335916e-03   2.202690e-01   736742
  4.629437e+00   1.894629e+02   7.381231e-03   2.195023e-01   750090
  4.654964e+00   1.899914e+02   7.349212e-03   2.184799e-01   754778
  4.680441e+00   1.905468e+02   7.358059e-03   2.180460e-01   763712
  4.705924e+00   1.916860e+02   7.355793e-03   2.179359e-01   771890
  4.731472e+00   1.914003e+02   7.394109e-03   2.162678e-01   784290
  4.756995e+00   1.918898e+02   7.346113e-03   2.162330e-01   787274
  4.782410e+00   1.927066e+02   7.329464e-03   2.168899e-01   794726
  4.807954e+00   1.929746e+02   7.402272e-03   2.145234e-01   811632
  4.833545e+00   1.932937e+02   7.368121e-03   2.142474e-01   815426
  4.859026e+00   1.939799e+02   7.349814e-03   2.138692e-01   822146
  4.884516e+00   1.952342e+02   7.358509e-03   2.141304e-01   832738
  4.910059e+00   1.954591e+02   7.375884e-03   2.130241e-01   842752
  4.935559e+00   1.954213e+02   7.355268e-03   2.116946e-01   848018
  4.961031e+00   1.951444e+02   7.365136e-03   2.103485e-01   858614
  4.986536e+00   1.961053e+02   7.354438e-03   2.102205e-01   867330
  5.012024e+00   1.971711e+02   7.346916e-03   2.109928e-01   875066
  5.037521e+00   1.972745e+02   7.371761e-03   2.096864e-01   886040
  5.063098e+00   1.976209e+02   7.401096e-03   2.084783e-01   899058
  5.088646e+00   1.979857e+02   7.339706e-03   2.082374e-01   901322
  5.114060e+00   1.987949e+02   7.325146e-03   2.090217e-01   907922
  5.139544e+00   1.990967e+02   7.388109e-03   2.075685e-01   924548
  5.165087e+00   1.989086e+02   7.360044e-03   2.062985e-01   930522
  5.190617e+00   1.992854e+02   7.378221e-03   2.054627e-01   941906
  5.216116e+00   1.997631e+02   7.347520e-03   2.052144e-01   946802
  5.241631e+00   2.003558e+02   7.385776e-03   2.043490e-01   961866
  5.267164e+00   2.006681e+02   7.346424e-03   2.036575e-01   966104
  5.292642e+00   2.010645e+02   7.367530e-03   2.034304e-01   977090
  5.318144e+00   2.013369e+02   7.368347e-03   2.028234e-01   987006
  5.343657e+00   2.011321e+02   7.358130e-03   2.016991e-01   996410
  5.369188e+00   2.014369e+02   7.367897e-03   2.011665e-01   1007018
  5.394677e+00   2.016853e+02   7.351679e-03   2.013410e-01   1012712
  5.420186e+00   2.025899e+02   7.395231e-03   2.006607e-01   1028394
  5.445709e+00   2.026148e+02   7.345496e-03   1.998856e-01   1032434
  5.471171e+00   2.031753e+02   7.349295e-03   1.993530e-01   1042658
  5.496689e+00   2.027043e+02   7.385049e-03   1.975745e-01   1056696
  5.522177e+00   2.033706e+02   7.337841e-03   1.974326e-01   1060142
  5.547700e+00   2.031786e+02   7.394181e-03   1.958487e-01   1078706
  5.573233e+00   2.039618e+02   7.345490e-03   1.959933e-01   1081002
  5.598698e+00   2.039949e+02   7.356737e-03   1.957374e-01   1092818
  5.624194e+00   2.048104e+02   7.359845e-03   1.956698e-01   1103072
  5.649718e+00   2.049138e+02   7.383227e-03   1.940833e-01   1115930
  5.675249e+00   2.047746e+02   7.366868e-03   1.936819e-01   1123602
  5.700727e+00   2.047901e+02   7.346065e-03   1.928550e-01   1131638
  5.726216e+00   2.052118e+02   7.358860e-03   1.922371e-01   1144112
  5.751763e+00   2.055121e+02   7.388963e-03   1.908306e-01   1157706
  5.777272e+00   2.056777e+02   7.350537e-03   1.909388e-01   1161674
  5.802757e+00   2.062319e+02   7.364804e-03   1.908075e-01   1175642
  5.828289e+00   2.058338e+02   7.364879e-03   1.891674e-01   1186250
  5.853783e+00   2.060165e+02   7.351825e-03   1.886315e-01   1192968
  5.879270e+00   2.064005e+02   7.377555e-03   1.878785e-01   1207214
  5.904809e+00   2.065054e+02   7.374073e-03   1.868873e-01   1218290
  5.930311e+00   2.063859e+02   7.347396e-03   1.870386e-01   1224522
  5.955783e+00   2.065912e+02   7.359483e-03   1.860264e-01   1236722
  5.981289e+00   2.074672e+02   7.367166e-03   1.858883e-01   1248896
  6.006817e+00   2.072115e+02   7.371668e-03   1.850322e-01   1260186
  6.032316e+00   2.072937e+02   7.353402e-03   1.840885e-01   1267634
  6.057797e+00   2.070449e+02   7.357581e-03   1.827704e-01   1279670
  6.083302e+00   2.074210e+02   7.362654e-03   1.822664e-01   1291400
  6.108840e+00   2.078114e+02   7.382392e-03   1.817647e-01   1304898
  6.134379e+00   2.077512e+02   7.372474e-03   1.814873e-01   1313426
  6.159855e+00   2.078878e+02   7.343986e-03   1.814056e-01   1320482
  6.185330e+00   2.080638e+02   7.353712e-03   1.800649e-01   1334370
  6.210891e+00   2.080400e+02   7.394115e-03   1.786100e-01   1351712
  6.236415e+00   2.082216e+02   7.346193e-03   1.792433e-01   1353278
  6.261886e+00   2.076540e+02   7.359241e-03   1.779725e-01   1368162
  6.287403e+00   2.081261e+02   7.358316e-03   1.774329e-01   1379666
  6.312867e+00   2.082562e+02   7.336863e-03   1.770650e-01   1385120
  6.338363e+00   2.083245e+02   7.390988e-03   1.756891e-01   1406378
  6.363941e+00   2.084439e+02   7.377138e-03   1.752630e-01   1415970
  6.389439e+00   2.083550e+02   7.340919e-03   1.750951e-01   1420394
  6.414933e+00   2.081329e+02   7.374625e-03   1.735052e-01   1438250
  6.440436e+00   2.082235e+02   7.345189e-03   1.730955e-01   1444116
  6.465918e+00   2.078705e+02   7.362911e-03   1.722292e-01   1458842
  6.491438e+00   2.082384e+02   7.371056e-03   1.718915e-01   1471610
  6.516921e+00   2.086086e+02   7.340542e-03   1.715424e-01   1477866
  6.542403e+00   2.079383e+02   7.359540e-03   1.706768e-01   1493810
  6.567923e+00   2.083528e+02   7.367977e-03   1.699753e-01   1506032
  6.593462e+00   2.081999e+02   7.384462e-03   1.691661e-01   1519802
  6.618983e+00   2.082254e+02   7.361122e-03   1.686731e-01   1527654
  6.644490e+00   2.081934e+02   7.360487e-03   1.677092e-01   1540874
  6.669967e+00   2.079436e+02   7.340671e-03   1.672491e-01   1547576
  6.695454e+00   2.076267e+02   7.378056e-03   1.660439e-01   1566738
  6.720978e+00   2.079008e+02   7.357950e-03   1.657524e-01   1575554
  6.746515e+00   2.077264e+02   7.375144e-03   1.648692e-01   1591874
  6.772051e+00   2.077440e+02   7.359599e-03   1.645390e-01   1599482
  6.797518e+00   2.080743e+02   7.347453e-03   1.638578e-01   1607916
  6.823032e+00   2.076446e+02   7.389035e-03   1.627230e-01   1629482
  6.848574e+00   2.080743e+02   7.359831e-03   1.626728e-01   1635530
  6.874038e+00   2.077086e+02   7.342653e-03   1.620562e-01   1644018
  6.899504e+00   2.075270e+02   7.357156e-03   1.611431e-01   1660064
  6.925011e+00   2.075369e+02   7.363592e-03   1.603794e-01   1673666
  6.950564e+00   2.074393e+02   7.390464e-03   1.596957e-01   1691178
  6.976082e+00   2.074833e+02   7.347487e-03   1.596387e-01   1694150
  7.001548e+00   2.070806e+02   7.350123e-03   1.585545e-01   1708466
  7.027045e+00   2.064126e+02   7.361935e-03   1.574212e-01   1722752
  7.052524e+00   2.065577e+02   7.354998e-03   1.570516e-01   1731882
  7.078022e+00   2.063454e+02   7.376293e-03   1.561253e-01   1750730
  7.103585e+00   2.062418e+02   7.376736e-03   1.551283e-01   1764962
  7.129099e+00   2.062701e+02   7.346959e-03   1.551776e-01   1769370
  7.154581e+00   2.059994e+02   7.369608e-03   1.546708e-01   1786676
  7.180090e+00   2.060137e+02   7.362830e-03   1.537760e-01   1798370
  7.205609e+00   2.056992e+02   7.369089e-03   1.526481e-01   1813482
  7.231123e+00   2.059278e+02   7.357571e-03   1.528027e-01   1822898
  7.256627e+00   2.051888e+02   7.370928e-03   1.515329e-01   1838432
  7.282155e+00   2.051709e+02   7.373386e-03   1.512130e-01   1852058
  7.307666e+00   2.048911e+02   7.361505e-03   1.501648e-01   1861794
  7.333149e+00   2.046111e+02   7.358806e-03   1.497403e-01   1874162
