# power spectrum of delta
# redshift z=1.000000
# k              Pk             sigma(k)       sigma(Pk)      count
  2.094395e-02   2.844998e-03   1.873193e-10   1.153679e-03   6
  4.041873e-02   1.788017e-02   7.123136e-03   4.269003e-03   50
  6.490740e-02   6.178845e-02   7.704015e-03   5.122697e-03   146
  8.919218e-02   1.136683e-01   6.515352e-03   6.928830e-03   258
  1.152383e-01   1.570841e-01   7.588046e-03   7.316379e-03   488
  1.414449e-01   2.428007e-01   7.538441e-03   9.562725e-03   698
  1.659742e-01   2.838166e-01   7.050465e-03   9.716447e-03   906
  1.914641e-01   3.595435e-01   7.471609e-03   1.010571e-02   1334
  2.173330e-01   4.275417e-01   6.995022e-03   1.037897e-02   1610
  2.424567e-01   5.060154e-01   7.345390e-03   1.152477e-02   2024
  2.678993e-01   6.024393e-01   7.580509e-03   1.178580e-02   2538
  2.938190e-01   6.872763e-01   7.447628e-03   1.264473e-02   3074
  3.195712e-01   7.499786e-01   7.220239e-03   1.260110e-02   3530
  3.446864e-01   8.453896e-01   7.270973e-03   1.301463e-02   4056
  3.699787e-01   9.318661e-01   7.428541e-03   1.384831e-02   4814
  3.958636e-01   1.033008e+00   7.424289e-03   1.414870e-02   5570
  4.214096e-01   1.143350e+00   7.192216e-03   1.501747e-02   6090
  4.461528e-01   1.305040e+00   7.017327e-03   1.623472e-02   6674
  4.716496e-01   1.391800e+00   7.522617e-03   1.532900e-02   8000
  4.976255e-01   1.516713e+00   7.432317e-03   1.649296e-02   8690
  5.234355e-01   1.659234e+00   7.563486e-03   1.703821e-02   9762
  5.488848e-01   1.810085e+00   7.139761e-03   1.791745e-02   10262
  5.740202e-01   1.939666e+00   7.208672e-03   1.826029e-02   11384
  5.998726e-01   2.136021e+00   7.605282e-03   1.857988e-02   12978
  6.254488e-01   2.269964e+00   7.225996e-03   2.024073e-02   13322
  6.507142e-01   2.398697e+00   7.369919e-03   1.949037e-02   14858
  6.762540e-01   2.580356e+00   7.250774e-03   2.063100e-02   15858
  7.016736e-01   2.755485e+00   7.353014e-03   2.134283e-02   17120
  7.269255e-01   2.956260e+00   7.307103e-03   2.187060e-02   18206
  7.526206e-01   3.133929e+00   7.525550e-03   2.198447e-02   20282
  7.783742e-01   3.318771e+00   7.276293e-03   2.281750e-02   20946
  8.037396e-01   3.511347e+00   7.373172e-03   2.339626e-02   22514
  8.292023e-01   3.705486e+00   7.345694e-03   2.410673e-02   23936
  8.546745e-01   3.890623e+00   7.347089e-03   2.467439e-02   25458
  8.800992e-01   4.173014e+00   7.329232e-03   2.564040e-02   26882
  9.054925e-01   4.436335e+00   7.338127e-03   2.642263e-02   28514
  9.311790e-01   4.617927e+00   7.460228e-03   2.628205e-02   30740
  9.568777e-01   4.918688e+00   7.357333e-03   2.778224e-02   31866
  9.821952e-01   5.184298e+00   7.331624e-03   2.873076e-02   33314
  1.007650e+00   5.274750e+00   7.414657e-03   2.817428e-02   35666
  1.033253e+00   5.674952e+00   7.318024e-03   2.951092e-02   37242
  1.058762e+00   5.897389e+00   7.338439e-03   3.007595e-02   39008
  1.084162e+00   6.199519e+00   7.377341e-03   3.081240e-02   40874
  1.109663e+00   6.387145e+00   7.384274e-03   3.126678e-02   43134
  1.135231e+00   6.714659e+00   7.323407e-03   3.181640e-02   44906
  1.160648e+00   6.946809e+00   7.324475e-03   3.196564e-02   46688
  1.186063e+00   7.202713e+00   7.393303e-03   3.276292e-02   49106
  1.211638e+00   7.535016e+00   7.403029e-03   3.347995e-02   51498
  1.237270e+00   7.918279e+00   7.385683e-03   3.457754e-02   53570
  1.262712e+00   8.124809e+00   7.321723e-03   3.443645e-02   55226
  1.288093e+00   8.447092e+00   7.341969e-03   3.516768e-02   57708
  1.313634e+00   8.854168e+00   7.407574e-03   3.627974e-02   60530
  1.339301e+00   9.051062e+00   7.432212e-03   3.596672e-02   63050
  1.364534e+00   9.438835e+00   7.161349e-03   3.750524e-02   63138
  1.389920e+00   9.737569e+00   7.475118e-03   3.758659e-02   68594
  1.415805e+00   1.006516e+01   7.439430e-03   3.793028e-02   70664
  1.441273e+00   1.052370e+01   7.308630e-03   3.974319e-02   71594
  1.466675e+00   1.075786e+01   7.411357e-03   3.943978e-02   75438
  1.492191e+00   1.118353e+01   7.301996e-03   4.046638e-02   77258
  1.517767e+00   1.146644e+01   7.436078e-03   4.057190e-02   81128
  1.543221e+00   1.187947e+01   7.296345e-03   4.165547e-02   82098
  1.568696e+00   1.224062e+01   7.424693e-03   4.191600e-02   86690
  1.594426e+00   1.251997e+01   7.389266e-03   4.211912e-02   89306
  1.619960e+00   1.284012e+01   7.318410e-03   4.278825e-02   91074
  1.645323e+00   1.334236e+01   7.332853e-03   4.383347e-02   93908
  1.670710e+00   1.359950e+01   7.343977e-03   4.383682e-02   97106
  1.696187e+00   1.395267e+01   7.356873e-03   4.436599e-02   100370
  1.721752e+00   1.439341e+01   7.394531e-03   4.494604e-02   103914
  1.747332e+00   1.476663e+01   7.360597e-03   4.549297e-02   106616
  1.772874e+00   1.508977e+01   7.362187e-03   4.569197e-02   109850
  1.798406e+00   1.548164e+01   7.360683e-03   4.619425e-02   112842
  1.823780e+00   1.579863e+01   7.293039e-03   4.688373e-02   114914
  1.849190e+00   1.629919e+01   7.358923e-03   4.731751e-02   119582
  1.874776e+00   1.661423e+01   7.367534e-03   4.762644e-02   122888
  1.900308e+00   1.709586e+01   7.385270e-03   4.843463e-02   126090
  1.925820e+00   1.748346e+01   7.366580e-03   4.897648e-02   129482
  1.951341e+00   1.781676e+01   7.334265e-03   4.924842e-02   132818
  1.976809e+00   1.824160e+01   7.322888e-03   4.958287e-02   135810
  2.002209e+00   1.859540e+01   7.346060e-03   5.007355e-02   139304
  2.027792e+00   1.906171e+01   7.442133e-03   5.019571e-02   145022
  2.053380e+00   1.947100e+01   7.308775e-03   5.118795e-02   146370
  2.078794e+00   1.976278e+01   7.334480e-03   5.090764e-02   150338
  2.104269e+00   2.022029e+01   7.371946e-03   5.190678e-02   154544
  2.129794e+00   2.051564e+01   7.373878e-03   5.196684e-02   158546
  2.155453e+00   2.096478e+01   7.427055e-03   5.184238e-02   163602
  2.180972e+00   2.135513e+01   7.309285e-03   5.300819e-02   164642
  2.206370e+00   2.162813e+01   7.351997e-03   5.272404e-02   169790
  2.231837e+00   2.220315e+01   7.324438e-03   5.362729e-02   173136
  2.257387e+00   2.251590e+01   7.423329e-03   5.347343e-02   179090
  2.282912e+00   2.290348e+01   7.329232e-03   5.393890e-02   180890
  2.308457e+00   2.331279e+01   7.404053e-03   5.394637e-02   187434
  2.333949e+00   2.368263e+01   7.276406e-03   5.523229e-02   188000
  2.359383e+00   2.414429e+01   7.426870e-03   5.470399e-02   195338
  2.384874e+00   2.446305e+01   7.330167e-03   5.520267e-02   197246
  2.410353e+00   2.490196e+01   7.377053e-03   5.537060e-02   203394
  2.435901e+00   2.523488e+01   7.347720e-03   5.604732e-02   206834
  2.461361e+00   2.571154e+01   7.352103e-03   5.643491e-02   210728
  2.486883e+00   2.589800e+01   7.408456e-03   5.588117e-02   216930
  2.512465e+00   2.660392e+01   7.356142e-03   5.704838e-02   220226
  2.537932e+00   2.704072e+01   7.338615e-03   5.698479e-02   224018
  2.563367e+00   2.739925e+01   7.347478e-03   5.737372e-02   228644
  2.588906e+00   2.764708e+01   7.404034e-03   5.709233e-02   235098
  2.614571e+00   2.810378e+01   7.419460e-03   5.737628e-02   240098
  2.640032e+00   2.840108e+01   7.303768e-03   5.808965e-02   240794
  2.665399e+00   2.885562e+01   7.353580e-03   5.810107e-02   247626
  2.690948e+00   2.912592e+01   7.383215e-03   5.817389e-02   253472
  2.716502e+00   2.953508e+01   7.379669e-03   5.847420e-02   257594
  2.741989e+00   2.988656e+01   7.366069e-03   5.819223e-02   261954
  2.767506e+00   3.037700e+01   7.373825e-03   5.885592e-02   267830
  2.793068e+00   3.070819e+01   7.364123e-03   5.915570e-02   272474
  2.818538e+00   3.107075e+01   7.347491e-03   5.941136e-02   276008
  2.843958e+00   3.140429e+01   7.368971e-03   5.931941e-02   281754
  2.869505e+00   3.185610e+01   7.394802e-03   5.957112e-02   288578
  2.895121e+00   3.204130e+01   7.386730e-03   5.970662e-02   293450
  2.920590e+00   3.220092e+01   7.325223e-03   5.943608e-02   295680
  2.946058e+00   3.276511e+01   7.393210e-03   5.954103e-02   304022
  2.971618e+00   3.316156e+01   7.353750e-03   6.011643e-02   307994
  2.997119e+00   3.346232e+01   7.361330e-03   6.016032e-02   313338
  3.022499e+00   3.383539e+01   7.291353e-03   6.031921e-02   315722
  3.048006e+00   3.436029e+01   7.422779e-03   6.031477e-02   327056
  3.073649e+00   3.445738e+01   7.377998e-03   6.028527e-02   330098
  3.099149e+00   3.486853e+01   7.360021e-03   6.066936e-02   334650
  3.124623e+00   3.515891e+01   7.344466e-03   6.032083e-02   340238
  3.150029e+00   3.561757e+01   7.295384e-03   6.111762e-02   343616
  3.175592e+00   3.581724e+01   7.449711e-03   6.039830e-02   355986
  3.201196e+00   3.621720e+01   7.341603e-03   6.069116e-02   356162
  3.226615e+00   3.650646e+01   7.337068e-03   6.086178e-02   362354
  3.252120e+00   3.688342e+01   7.358113e-03   6.073007e-02   369474
  3.277642e+00   3.714230e+01   7.364375e-03   6.081522e-02   374696
  3.303139e+00   3.744424e+01   7.372139e-03   6.081796e-02   380774
  3.328682e+00   3.780686e+01   7.376858e-03   6.103862e-02   387530
  3.354217e+00   3.802524e+01   7.353481e-03   6.067182e-02   392346
  3.379688e+00   3.850770e+01   7.345952e-03   6.115734e-02   397490
  3.405140e+00   3.863403e+01   7.351647e-03   6.096352e-02   404024
  3.430725e+00   3.916131e+01   7.408667e-03   6.110765e-02   413538
  3.456243e+00   3.953584e+01   7.315991e-03   6.142013e-02   414266
  3.481684e+00   3.961800e+01   7.363540e-03   6.108497e-02   423350
  3.507212e+00   3.988594e+01   7.356884e-03   6.108772e-02   429224
  3.532706e+00   4.022370e+01   7.357692e-03   6.113765e-02   434898
  3.558224e+00   4.049239e+01   7.391743e-03   6.111947e-02   442754
  3.583745e+00   4.074551e+01   7.358544e-03   6.089306e-02   447842
  3.609237e+00   4.101185e+01   7.340691e-03   6.131943e-02   453906
  3.634764e+00   4.122931e+01   7.379481e-03   6.095940e-02   462008
  3.660246e+00   4.154096e+01   7.346019e-03   6.098829e-02   465746
  3.685744e+00   4.195609e+01   7.382125e-03   6.119696e-02   475518
  3.711289e+00   4.239076e+01   7.343917e-03   6.138138e-02   480074
  3.736776e+00   4.240815e+01   7.361129e-03   6.112785e-02   486704
  3.762257e+00   4.287072e+01   7.371796e-03   6.132350e-02   493682
  3.787731e+00   4.287423e+01   7.348094e-03   6.086489e-02   499458
  3.813253e+00   4.320387e+01   7.384327e-03   6.075812e-02   508874
  3.838784e+00   4.346423e+01   7.356201e-03   6.081739e-02   513530
  3.864291e+00   4.372397e+01   7.371075e-03   6.069597e-02   521652
  3.889813e+00   4.403798e+01   7.360567e-03   6.066620e-02   527762
  3.915341e+00   4.432166e+01   7.382957e-03   6.084089e-02   535898
  3.940780e+00   4.448826e+01   7.313419e-03   6.068112e-02   538074
  3.966243e+00   4.491090e+01   7.379204e-03   6.070629e-02   550562
  3.991852e+00   4.503821e+01   7.396797e-03   6.037949e-02   558392
  4.017351e+00   4.519480e+01   7.345294e-03   6.045390e-02   560522
  4.042795e+00   4.554218e+01   7.371024e-03   6.038473e-02   570366
  4.068286e+00   4.580776e+01   7.342311e-03   6.053478e-02   576290
  4.093801e+00   4.591205e+01   7.381356e-03   6.015665e-02   586016
  4.119292e+00   4.599301e+01   7.350810e-03   6.023648e-02   590178
  4.144811e+00   4.639078e+01   7.396764e-03   5.998474e-02   602090
  4.170363e+00   4.659937e+01   7.345928e-03   5.991112e-02   605834
  4.195849e+00   4.687444e+01   7.364704e-03   6.010000e-02   614210
  4.221384e+00   4.699955e+01   7.384356e-03   5.969830e-02   623076
  4.246873e+00   4.722027e+01   7.343391e-03   6.003613e-02   627194
  4.272356e+00   4.742912e+01   7.375414e-03   5.954676e-02   637706
  4.297876e+00   4.758233e+01   7.362245e-03   5.953227e-02   644178
  4.323354e+00   4.777108e+01   7.348692e-03   5.949489e-02   651056
  4.348869e+00   4.793028e+01   7.374286e-03   5.895971e-02   661130
  4.374409e+00   4.825025e+01   7.373714e-03   5.911279e-02   668106
  4.399910e+00   4.843361e+01   7.359532e-03   5.912693e-02   674894
  4.425387e+00   4.862078e+01   7.342198e-03   5.904401e-02   682082
  4.450903e+00   4.893438e+01   7.375276e-03   5.909321e-02   692480
  4.476432e+00   4.910489e+01   7.375072e-03   5.875193e-02   699258
  4.501885e+00   4.897726e+01   7.336800e-03   5.855354e-02   704354
  4.527378e+00   4.922583e+01   7.372539e-03   5.840529e-02   716810
  4.552863e+00   4.945418e+01   7.328466e-03   5.844635e-02   720138
  4.578399e+00   4.951078e+01   7.414456e-03   5.760528e-02   736064
  4.603934e+00   4.965954e+01   7.335916e-03   5.789954e-02   736742
  4.629437e+00   4.997689e+01   7.381231e-03   5.785034e-02   750090
  4.654964e+00   5.005260e+01   7.349212e-03   5.774595e-02   754778
  4.680441e+00   5.025177e+01   7.358059e-03   5.757413e-02   763712
  4.705924e+00   5.043488e+01   7.355793e-03   5.760823e-02   771890
  4.731472e+00   5.063159e+01   7.394109e-03   5.725789e-02   784290
  4.756995e+00   5.081036e+01   7.346113e-03   5.749455e-02   787274
  4.782410e+00   5.098523e+01   7.329464e-03   5.739162e-02   794726
  4.807954e+00   5.111217e+01   7.402272e-03   5.688958e-02   811632
  4.833545e+00   5.125072e+01   7.368121e-03   5.677207e-02   815426
  4.859026e+00   5.146414e+01   7.349814e-03   5.698280e-02   822146
  4.884516e+00   5.167717e+01   7.358509e-03   5.682835e-02   832738
  4.910059e+00   5.178531e+01   7.375884e-03   5.663660e-02   842752
  4.935559e+00   5.173351e+01   7.355268e-03   5.638244e-02   848018
  4.961031e+00   5.194401e+01   7.365136e-03   5.623375e-02   858614
  4.986536e+00   5.200586e+01   7.354438e-03   5.617555e-02   867330
  5.012024e+00   5.214718e+01   7.346916e-03   5.579841e-02   875066
  5.037521e+00   5.234927e+01   7.371761e-03   5.580663e-02   886040
  5.063098e+00   5.253729e+01   7.401096e-03   5.561530e-02   899058
  5.088646e+00   5.259285e+01   7.339706e-03   5.543946e-02   901322
  5.114060e+00   5.277579e+01   7.325146e-03   5.541826e-02   907922
  5.139544e+00   5.287818e+01   7.388109e-03   5.505665e-02   924548
  5.165087e+00   5.304923e+01   7.360044e-03   5.508967e-02   930522
  5.190617e+00   5.305195e+01   7.378221e-03   5.491985e-02   941906
  5.216116e+00   5.336591e+01   7.347520e-03   5.502512e-02   946802
  5.241631e+00   5.352043e+01   7.385776e-03   5.474283e-02   961866
  5.267164e+00   5.352186e+01   7.346424e-03   5.450217e-02   966104
  5.292642e+00   5.352939e+01   7.367530e-03   5.434022e-02   977090
  5.318144e+00   5.375040e+01   7.368347e-03   5.409383e-02   987006
  5.343657e+00   5.393346e+01   7.358130e-03   5.414610e-02   996410
  5.369188e+00   5.382832e+01   7.367897e-03   5.366684e-02   1007018
  5.394677e+00   5.401355e+01   7.351679e-03   5.375069e-02   1012712
  5.420186e+00   5.417480e+01   7.395231e-03   5.359685e-02   1028394
  5.445709e+00   5.432733e+01   7.345496e-03   5.365623e-02   1032434
  5.471171e+00   5.442807e+01   7.349295e-03   5.343081e-02   1042658
  5.496689e+00   5.439698e+01   7.385049e-03   5.309898e-02   1056696
  5.522177e+00   5.460556e+01   7.337841e-03   5.324969e-02   1060142
  5.547700e+00   5.471389e+01   7.394181e-03   5.281095e-02   1078706
  5.573233e+00   5.475987e+01   7.345490e-03   5.290016e-02   1081002
  5.598698e+00   5.487388e+01   7.356737e-03   5.254382e-02   1092818
  5.624194e+00   5.487063e+01   7.359845e-03   5.234312e-02   1103072
  5.649718e+00   5.500281e+01   7.383227e-03   5.223976e-02   1115930
  5.675249e+00   5.498936e+01   7.366868e-03   5.201980e-02   1123602
  5.700727e+00   5.519366e+01   7.346065e-03   5.201870e-02   1131638
  5.726216e+00   5.512170e+01   7.358860e-03   5.176969e-02   1144112
  5.751763e+00   5.526177e+01   7.388963e-03   5.138372e-02   1157706
  5.777272e+00   5.549619e+01   7.350537e-03   5.162562e-02   1161674
  5.802757e+00   5.555683e+01   7.364804e-03   5.154127e-02   1175642
  5.828289e+00   5.545908e+01   7.364879e-03   5.095617e-02   1186250
  5.853783e+00   5.543233e+01   7.351825e-03   5.092435e-02   1192968
  5.879270e+00   5.553956e+01   7.377555e-03   5.067214e-02   1207214
  5.904809e+00   5.560635e+01   7.374073e-03   5.055079e-02   1218290
  5.930311e+00   5.559756e+01   7.347396e-03   5.042527e-02   1224522
  5.955783e+00   5.578529e+01   7.359483e-03   5.018944e-02   1236722
  5.981289e+00   5.570106e+01   7.367166e-03   4.988390e-02   1248896
  6.006817e+00   5.593274e+01   7.371668e-03   4.998895e-02   1260186
  6.032316e+00   5.604765e+01   7.353402e-03   4.982398e-02   1267634
  6.057797e+00   5.596749e+01   7.357581e-03   4.962440e-02   1279670
  6.083302e+00   5.602532e+01   7.362654e-03   4.939556e-02   1291400
  6.108840e+00   5.612655e+01   7.382392e-03   4.933877e-02   1304898
  6.134379e+00   5.613358e+01   7.372474e-03   4.914811e-02   1313426
  6.159855e+00   5.617224e+01   7.343986e-03   4.903737e-02   1320482
  6.185330e+00   5.621133e+01   7.353712e-03   4.873151e-02   1334370
  6.210891e+00   5.627165e+01   7.394115e-03   4.859307e-02   1351712
  6.236415e+00   5.632890e+01   7.346193e-03   4.853194e-02   1353278
  6.261886e+00   5.623749e+01   7.359241e-03   4.827082e-02   1368162
  6.287403e+00   5.626653e+01   7.358316e-03   4.810596e-02   1379666
  6.312867e+00   5.635444e+01   7.336863e-03   4.803978e-02   1385120
  6.338363e+00   5.644872e+01   7.390988e-03   4.775923e-02   1406378
  6.363941e+00   5.640345e+01   7.377138e-03   4.752064e-02   1415970
  6.389439e+00   5.643624e+01   7.340919e-03   4.745360e-02   1420394
  6.414933e+00   5.650003e+01   7.374625e-03   4.724709e-02   1438250
  6.440436e+00   5.649642e+01   7.345189e-03   4.715623e-02   1444116
  6.465918e+00   5.658137e+01   7.362911e-03   4.699081e-02   1458842
  6.491438e+00   5.653814e+01   7.371056e-03   4.666065e-02   1471610
  6.516921e+00   5.652953e+01   7.340542e-03   4.655477e-02   1477866
  6.542403e+00   5.649943e+01   7.359540e-03   4.624582e-02   1493810
  6.567923e+00   5.647956e+01   7.367977e-03   4.610610e-02   1506032
  6.593462e+00   5.656919e+01   7.384462e-03   4.593535e-02   1519802
  6.618983e+00   5.662045e+01   7.361122e-03   4.595469e-02   1527654
  6.644490e+00   5.670920e+01   7.360487e-03   4.584310e-02   1540874
  6.669967e+00   5.663429e+01   7.340671e-03   4.562260e-02   1547576
  6.695454e+00   5.671461e+01   7.378056e-03   4.551111e-02   1566738
  6.720978e+00   5.655197e+01   7.357950e-03   4.516076e-02   1575554
  6.746515e+00   5.660364e+01   7.375144e-03   4.496217e-02   1591874
  6.772051e+00   5.662094e+01   7.359599e-03   4.487893e-02   1599482
  6.797518e+00   5.655906e+01   7.347453e-03   4.473209e-02   1607916
  6.823032e+00   5.667609e+01   7.389035e-03   4.452733e-02   1629482
  6.848574e+00   5.669015e+01   7.359831e-03   4.444525e-02   1635530
  6.874038e+00   5.670985e+01   7.342653e-03   4.432402e-02   1644018
  6.899504e+00   5.660754e+01   7.357156e-03   4.402471e-02   1660064
  6.925011e+00   5.661593e+01   7.363592e-03   4.385329e-02   1673666
  6.950564e+00   5.664172e+01   7.390464e-03   4.362325e-02   1691178
  6.976082e+00   5.667383e+01   7.347487e-03   4.363541e-02   1694150
  7.001548e+00   5.673356e+01   7.350123e-03   4.345916e-02   1708466
  7.027045e+00   5.654086e+01   7.361935e-03   4.320941e-02   1722752
  7.052524e+00   5.661956e+01   7.354998e-03   4.314029e-02   1731882
  7.078022e+00   5.657143e+01   7.376293e-03   4.284585e-02   1750730
  7.103585e+00   5.648296e+01   7.376736e-03   4.266811e-02   1764962
  7.129099e+00   5.653415e+01   7.346959e-03   4.262210e-02   1769370
  7.154581e+00   5.654829e+01   7.369608e-03   4.242305e-02   1786676
  7.180090e+00   5.653871e+01   7.362830e-03   4.235178e-02   1798370
  7.205609e+00   5.640127e+01   7.369089e-03   4.198228e-02   1813482
  7.231123e+00   5.655912e+01   7.357571e-03   4.206937e-02   1822898
  7.256627e+00   5.650259e+01   7.370928e-03   4.180075e-02   1838432
  7.282155e+00   5.648399e+01   7.373386e-03   4.162265e-02   1852058
  7.307666e+00   5.645033e+01   7.361505e-03   4.154369e-02   1861794
  7.333149e+00   5.642414e+01   7.358806e-03   4.138568e-02   1874162
